T,Cp,Field
K,,T
0.65965,4739.9458,0.39999
0.67351,4889.7435,0.39999
0.68738,5055.1856,0.39999
0.70124,5215.3332,0.39999
0.7151,5410.1662,0.39999
0.72896,5526.7074,0.39999
0.74282,5701.0025,0.39999
0.75668,5885.1358,0.39999
0.77054,6076.7389,0.39999
0.78441,6340.7685,0.39999
0.79827,6485.6158,0.39999
0.81213,6691.256,0.39999
0.82599,6903.4085,0.39999
0.83985,7103.1415,0.39999
0.85371,7330.6346,0.39999
0.86758,7588.9309,0.39999
0.88144,7711.8914,0.39999
0.8953,7941.3977,0.39999
0.90916,8214.2951,0.39999
0.92302,8542.1105,0.39999
0.93688,8975.7086,0.39999
0.95074,9519.0668,0.39999
0.96461,9961.7136,0.39999
0.97847,10551.665,0.39999
0.99233,11212.652,0.39999
1.00619,11925.948,0.39999
1.02005,12677.538,0.39999
1.03391,13480.635,0.39999
1.04778,14829.632,0.39999
1.06164,16900.358,0.39999
1.0755,15524.804,0.39999
1.08936,13041.106,0.39999
1.10322,12229.644,0.39999
1.11708,12008.744,0.39999
1.13094,11728.486,0.39999
1.14481,11631.707,0.39999
1.15867,11532.671,0.39999
1.17253,11505.43,0.39999
1.18639,11606.619,0.39999
1.20025,11659.647,0.39999
1.21411,11693.801,0.39999
1.22798,11826.162,0.39999
1.24184,12015.522,0.39999
1.2557,12387.007,0.39999
1.26956,12952.671,0.39999
1.28342,11623.345,0.39999
1.29728,9602.7522,0.39999
1.31114,8645.3297,0.39999
1.32501,8035.4606,0.39999
1.33887,7598.4692,0.39999
1.35273,7351.5414,0.39999
1.36659,7094.4714,0.39999
1.38045,6827.8976,0.39999
1.39431,6675.9738,0.39999
1.40818,6501.1779,0.39999
1.42204,6281.0906,0.39999
1.4359,6150.6862,0.39999
1.44976,6015.514,0.39999
1.46362,5826.7272,0.39999
1.47748,5726.247,0.39999
1.49134,5620.0385,0.39999
1.50521,5473.4721,0.39999
1.51907,5383.2424,0.39999
1.53293,5268.734,0.39999
1.54679,5173.531,0.39999
1.56065,5050.9507,0.39999
0.68927,5066.3683,0.39999
0.70469,5236.8041,0.39999
0.72012,5419.6431,0.39999
0.73554,5618.7856,0.39999
0.75096,5836.8161,0.39999
0.76639,6076.1425,0.39999
0.78181,6274.3248,0.39999
0.79723,6486.542,0.39999
0.81266,6714.5717,0.39999
0.82808,6960.3006,0.39999
0.8435,7190.1807,0.39999
0.85893,7434.0554,0.39999
0.87435,7694.0445,0.39999
0.88977,7977.3496,0.39999
0.9052,8289.8022,0.39999
0.92062,8643.4201,0.39999
0.93604,9063.7776,0.39999
0.95147,9552.7381,0.39999
0.96689,10118.327,0.39999
0.98231,10760.452,0.39999
0.99774,11484.891,0.39999
1.01316,12294.12,0.39999
1.02858,13294.435,0.39999
1.04401,14688.41,0.39999
1.05943,15596.632,0.39999
1.07485,14890.497,0.39999
1.09028,13665.145,0.39999
1.1057,12650.35,0.39999
1.12112,12110.09,0.39999
1.13655,11792.636,0.39999
1.15197,11676.409,0.39999
1.16739,11612.904,0.39999
1.18282,11596.958,0.39999
1.19824,11632.335,0.39999
1.21366,11732.56,0.39999
1.22909,11901.718,0.39999
1.24451,12202.098,0.39999
1.25993,12283.484,0.39999
1.27536,11585.659,0.39999
1.29078,10484.157,0.39999
1.3062,9334.8403,0.39999
1.32163,8484.1662,0.39999
1.33705,7859.2666,0.39999
1.35247,7460.0785,0.39999
1.3679,7135.3058,0.39999
1.38332,6864.4076,0.39999
1.39874,6637.8144,0.39999
1.41417,6429.8131,0.39999
1.42959,6244.6758,0.39999
1.44501,6073.9338,0.39999
1.46044,5912.992,0.39999
1.47586,5764.8744,0.39999
1.49128,5626.188,0.39999
1.50671,5495.9715,0.39999
1.52213,5372.8007,0.39999
1.53755,5259.1836,0.39999
1.55298,5151.5306,0.39999
1.5684,5043.7604,0.39999
1.58382,4944.1645,0.39999
1.59925,4850.0282,0.39999
1.61467,4760.9298,0.39999
1.63009,4669.2712,0.39999
1.64552,4585.4942,0.39999
1.66094,4505.2708,0.39999
1.67636,4427.8603,0.39999
1.69179,4355.6734,0.39999
0.65227,4733.3962,0.49999
0.66637,4893.7502,0.49999
0.68046,5065.7886,0.49999
0.69456,5228.2665,0.49999
0.70865,5390.105,0.49999
0.72275,5557.6692,0.49999
0.73684,5731.1544,0.49999
0.75094,5915.6251,0.49999
0.76503,6118.8741,0.49999
0.77913,6326.3275,0.49999
0.79322,6541.8568,0.49999
0.80732,6756.5137,0.49999
0.82141,6978.4082,0.49999
0.83551,7189.9365,0.49999
0.8496,7397.2441,0.49999
0.8637,7604.1316,0.49999
0.87779,7800.5711,0.49999
0.89189,8036.3561,0.49999
0.90598,8315.799,0.49999
0.92007,8667.0114,0.49999
0.93417,9078.258,0.49999
0.94826,9577.7941,0.49999
0.96236,10194.947,0.49999
0.97645,10904.085,0.49999
0.99055,11689.499,0.49999
1.00464,12524.286,0.49999
1.01874,13549.311,0.49999
1.03283,15144.172,0.49999
1.04693,16244.154,0.49999
1.06102,14155.355,0.49999
1.07512,12443.02,0.49999
1.08921,11863.396,0.49999
1.10331,11594.621,0.49999
1.1174,11454.674,0.49999
1.1315,11340.778,0.49999
1.14559,11280.07,0.49999
1.15969,11258.472,0.49999
1.17378,11233.38,0.49999
1.18788,11293.116,0.49999
1.20197,11336.094,0.49999
1.21607,11423.791,0.49999
1.23016,11577.812,0.49999
1.24425,11764.988,0.49999
1.25835,12135.315,0.49999
1.27244,12589.368,0.49999
1.28654,11559.486,0.49999
1.30063,9635.5562,0.49999
1.31473,8534.4263,0.49999
1.32882,7901.2584,0.49999
1.34292,7465.7674,0.49999
1.35701,7127.3801,0.49999
1.37111,6857.3731,0.49999
1.3852,6614.8454,0.49999
1.3993,6405.2523,0.49999
1.41339,6215.9574,0.49999
1.42749,6048.3836,0.49999
1.44158,5870.3701,0.49999
1.45568,5719.8907,0.49999
1.46977,5578.4048,0.49999
1.48387,5450.0013,0.49999
1.49796,5329.3294,0.49999
1.51206,5217.2248,0.49999
1.52615,5101.5141,0.49999
1.54025,4995.7614,0.49999
1.55434,4892.7215,0.49999
1.56843,4794.0059,0.49999
0.64772,4733.8968,0.59999
0.66206,4898.9362,0.59999
0.67639,5077.7723,0.59999
0.69073,5244.8192,0.59999
0.70507,5410.4994,0.59999
0.71941,5579.6977,0.59999
0.73375,5755.3886,0.59999
0.74809,5947.5971,0.59999
0.76242,6151.2818,0.59999
0.77676,6368.7475,0.59999
0.7911,6600.7908,0.59999
0.80544,6825.0657,0.59999
0.81978,7053.0553,0.59999
0.83412,7279.0029,0.59999
0.84845,7490.8499,0.59999
0.86279,7701.4008,0.59999
0.87713,7909.3603,0.59999
0.89147,8143.4248,0.59999
0.90581,8436.4647,0.59999
0.92014,8817.3418,0.59999
0.93448,9281.5727,0.59999
0.94882,9875.5554,0.59999
0.96316,10614.251,0.59999
0.9775,11501.931,0.59999
0.99184,12523.271,0.59999
1.00617,13996.497,0.59999
1.02051,15196.504,0.59999
1.03485,14245.075,0.59999
1.04919,12550.216,0.59999
1.06353,11622.951,0.59999
1.07787,11362.218,0.59999
1.0922,11145.405,0.59999
1.10654,11104.639,0.59999
1.12088,11035.699,0.59999
1.13522,10931.897,0.59999
1.14956,10960.404,0.59999
1.1639,10934.347,0.59999
1.17823,10950.231,0.59999
1.19257,11003.081,0.59999
1.20691,11034.487,0.59999
1.22125,11176.45,0.59999
1.23559,11331.282,0.59999
1.24993,11571.458,0.59999
1.26426,11852.99,0.59999
1.2786,12413.279,0.59999
1.29294,11479.576,0.59999
1.30728,9557.166,0.59999
1.32162,8346.4079,0.59999
1.33596,7706.6716,0.59999
1.35029,7245.0372,0.59999
1.36463,6882.5965,0.59999
1.37897,6602.8314,0.59999
1.39331,6324.4657,0.59999
1.40765,6110.2639,0.59999
1.42199,5921.1134,0.59999
1.43632,5727.3852,0.59999
1.45066,5599.2205,0.59999
1.465,5434.3921,0.59999
1.47934,5305.8269,0.59999
1.49368,5148.6702,0.59999
1.50802,5036.5081,0.59999
1.52235,4907.4605,0.59999
1.53669,4803.0241,0.59999
1.55103,4692.2553,0.59999
1.56537,4583.3554,0.59999
1.57971,4497.1021,0.59999
0.64258,4729.5491,0.69999
0.6572,4902.7246,0.69999
0.67182,5086.6959,0.69999
0.68643,5262.6589,0.69999
0.70105,5430.4349,0.69999
0.71567,5605.9022,0.69999
0.73028,5783.3878,0.69999
0.7449,5977.3662,0.69999
0.75952,6187.964,0.69999
0.77414,6418.366,0.69999
0.78875,6662.6197,0.69999
0.80337,6901.1537,0.69999
0.81799,7147.6228,0.69999
0.8326,7387.4951,0.69999
0.84722,7616.8226,0.69999
0.86184,7829.4095,0.69999
0.87646,8042.7932,0.69999
0.89107,8281.9836,0.69999
0.90569,8617.0475,0.69999
0.92031,9031.847,0.69999
0.93492,9563.3365,0.69999
0.94954,10237.314,0.69999
0.96416,11246.219,0.69999
0.97878,13030.478,0.69999
0.99339,13544.487,0.69999
1.00801,13557.787,0.69999
1.02263,12176.258,0.69999
1.03724,11400.186,0.69999
1.05186,11090.296,0.69999
1.06648,10832.015,0.69999
1.0811,10738.302,0.69999
1.09571,10704.646,0.69999
1.11033,10684.929,0.69999
1.12495,10651.37,0.69999
1.13956,10632.559,0.69999
1.15418,10652.786,0.69999
1.1688,10655.314,0.69999
1.18342,10672.984,0.69999
1.19803,10749.666,0.69999
1.21265,10792.101,0.69999
1.22727,10883.839,0.69999
1.24188,11123.643,0.69999
1.2565,11242.642,0.69999
1.27112,11587.373,0.69999
1.28574,12109.764,0.69999
1.30035,11615.622,0.69999
1.31497,9712.1425,0.69999
1.32959,8296.8857,0.69999
1.3442,7527.5982,0.69999
1.35882,7025.3325,0.69999
1.37344,6656.8721,0.69999
1.38806,6355.4813,0.69999
1.40267,6069.8127,0.69999
1.41729,5840.9134,0.69999
1.43191,5631.4273,0.69999
1.44652,5454.6383,0.69999
1.46114,5284.7195,0.69999
1.47576,5134.3487,0.69999
1.49038,5008.006,0.69999
1.50499,4870.4837,0.69999
1.51961,4740.0947,0.69999
1.53423,4636.0684,0.69999
1.54884,4503.1223,0.69999
1.56346,4399.7603,0.69999
1.57808,4298.969,0.69999
1.5927,4210.4284,0.69999
0.63652,4722.3372,0.79998
0.65144,4909.345,0.79998
0.66637,5102.2966,0.79998
0.6813,5289.768,0.79998
0.69623,5465.3864,0.79998
0.71116,5642.8865,0.79998
0.72608,5824.4802,0.79998
0.74101,6023.6652,0.79998
0.75594,6242.9877,0.79998
0.77087,6488.9286,0.79998
0.7858,6748.8323,0.79998
0.80072,7011.7978,0.79998
0.81565,7266.2207,0.79998
0.83058,7525.9568,0.79998
0.84551,7770.3161,0.79998
0.86044,7994.1573,0.79998
0.87536,8216.9235,0.79998
0.89029,8472.8551,0.79998
0.90522,8916.8878,0.79998
0.92015,10066.485,0.79998
0.93508,10364.227,0.79998
0.95,11040.749,0.79998
0.96493,12088.753,0.79998
0.97986,11255.109,0.79998
0.99479,10561.094,0.79998
1.00972,10596.1,0.79998
1.02464,10599.721,0.79998
1.03957,10557.255,0.79998
1.0545,10394.591,0.79998
1.06943,10322.511,0.79998
1.08436,10333.806,0.79998
1.09928,10354.554,0.79998
1.11421,10343.143,0.79998
1.12914,10408.307,0.79998
1.14407,10413.467,0.79998
1.159,10405.845,0.79998
1.17392,10501.581,0.79998
1.18885,10532.357,0.79998
1.20378,10551.747,0.79998
1.21871,10627.434,0.79998
1.23364,10698.19,0.79998
1.24856,10868.786,0.79998
1.26349,11027.637,0.79998
1.27842,11338.056,0.79998
1.29335,11791.679,0.79998
1.30828,11824.863,0.79998
1.32321,9981.7761,0.79998
1.33813,8391.3234,0.79998
1.35306,7445.282,0.79998
1.36799,6856.2386,0.79998
1.38292,6440.0292,0.79998
1.39785,6128.7102,0.79998
1.41277,5846.052,0.79998
1.4277,5603.6652,0.79998
1.44263,5387.4884,0.79998
1.45756,5184.3261,0.79998
1.47249,5007.612,0.79998
1.48741,4855.9938,0.79998
1.50234,4720.2444,0.79998
1.51727,4582.324,0.79998
1.5322,4454.1107,0.79998
1.54713,4336.9909,0.79998
1.56205,4224.8152,0.79998
1.57698,4132.5381,0.79998
1.59191,4029.4312,0.79998
1.60684,3936.1828,0.79998
0.63027,4717.1293,0.89999
0.64551,4918.6053,0.89999
0.66076,5123.7255,0.89999
0.676,5322.9855,0.89999
0.69124,5507.571,0.89999
0.70649,5694.8063,0.89999
0.72173,5878.0783,0.89999
0.73697,6083.6773,0.89999
0.75222,6313.8695,0.89999
0.76746,6575.8188,0.89999
0.7827,6857.1682,0.89999
0.79794,7147.7264,0.89999
0.81319,7455.0824,0.89999
0.82843,8180.7121,0.89999
0.84367,8990.8933,0.89999
0.85892,8563.6666,0.89999
0.87416,9896.0232,0.89999
0.8894,10285.605,0.89999
0.90465,8817.4511,0.89999
0.91989,7898.8761,0.89999
0.93513,7829.5226,0.89999
0.95037,8101.7997,0.89999
0.96562,8515.2545,0.89999
0.98086,8971.6536,0.89999
0.9961,9363.6041,0.89999
1.01135,9624.041,0.89999
1.02659,9702.0153,0.89999
1.04183,9681.9986,0.89999
1.05708,9652.7963,0.89999
1.07232,9815.4129,0.89999
1.08756,10047.869,0.89999
1.10281,10078.677,0.89999
1.11805,10158.113,0.89999
1.13329,10864.225,0.89999
1.14853,11249.351,0.89999
1.16378,10666.772,0.89999
1.17902,10504.924,0.89999
1.19426,10455.254,0.89999
1.20951,10471.493,0.89999
1.22475,10495.477,0.89999
1.23999,10526.589,0.89999
1.25524,10660.133,0.89999
1.27048,10810.845,0.89999
1.28572,11006.994,0.89999
1.30096,11443.849,0.89999
1.31621,11810.463,0.89999
1.33145,10542.135,0.89999
1.34669,8698.1085,0.89999
1.36194,7521.4013,0.89999
1.37718,6793.2821,0.89999
1.39242,6294.1697,0.89999
1.40767,5921.8159,0.89999
1.42291,5606.1586,0.89999
1.43815,5359.2701,0.89999
1.4534,5140.3884,0.89999
1.46864,4889.6666,0.89999
1.48388,4684.3903,0.89999
1.49912,4558.2039,0.89999
1.51437,4451.0478,0.89999
1.52961,4338.6554,0.89999
1.54485,4236.1974,0.89999
1.5601,4141.3287,0.89999
1.57534,4048.6859,0.89999
1.59058,3935.1562,0.89999
1.60583,3810.2588,0.89999
1.62107,3683.3085,0.89999
0.6229,4720.1725,0.99998
0.63851,4937.7161,0.99998
0.65411,5160.5753,0.99998
0.66972,5380.0811,0.99998
0.68533,5582.3877,0.99998
0.70094,5782.846,0.99998
0.71655,5979.4144,0.99998
0.73216,6360.7477,0.99998
0.74777,7237.0634,0.99998
0.76338,7207.92,0.99998
0.77898,8191.2673,0.99998
0.79459,9489.2514,0.99998
0.8102,9315.7792,0.99998
0.82581,8024.0798,0.99998
0.84142,7183.3853,0.99998
0.85703,6961.6243,0.99998
0.87264,6890.4504,0.99998
0.88824,6862.9247,0.99998
0.90385,6909.9932,0.99998
0.91946,7043.4856,0.99998
0.93507,7281.4163,0.99998
0.95068,7657.0644,0.99998
0.96629,8144.232,0.99998
0.9819,8670.43,0.99998
0.99751,9087.3606,0.99998
1.01311,9330.8797,0.99998
1.02872,9410.0325,0.99998
1.04433,9336.7759,0.99998
1.05994,9227.4173,0.99998
1.07555,9230.574,0.99998
1.09116,9299.2338,0.99998
1.10677,9398.9249,0.99998
1.12237,9639.8237,0.99998
1.13798,10144.578,0.99998
1.15359,10437.253,0.99998
1.1692,10480.481,0.99998
1.18481,11470.984,0.99998
1.20042,11185.642,0.99998
1.21603,10653.657,0.99998
1.23164,10515.751,0.99998
1.24724,10472.08,0.99998
1.26285,10473.585,0.99998
1.27846,10618.541,0.99998
1.29407,10787.601,0.99998
1.30968,11140.649,0.99998
1.32529,11650.854,0.99998
1.3409,10982.224,0.99998
1.3565,9116.4185,0.99998
1.37211,7628.6257,0.99998
1.38772,6747.4555,0.99998
1.40333,6166.5113,0.99998
1.41894,5731.4652,0.99998
1.43455,5404.4047,0.99998
1.45016,5135.592,0.99998
1.46577,4907.2556,0.99998
1.48137,4705.5295,0.99998
1.49698,4518.0441,0.99998
1.51259,4349.8902,0.99998
1.5282,4208.8759,0.99998
1.54381,4076.0065,0.99998
1.55942,3953.4243,0.99998
1.57503,3831.6773,0.99998
1.59063,3734.9505,0.99998
1.60624,3626.7645,0.99998
1.62185,3529.3897,0.99998
1.63746,3437.9886,0.99998
0.65016,5520.5299,1.09983
0.67476,6158.1358,1.09983
0.69937,6847.0765,1.09983
0.72397,7404.1653,1.09983
0.74857,7273.5329,1.09983
0.77317,6787.7342,1.09983
0.79778,6434.6608,1.09983
0.82238,6389.595,1.09983
0.84698,6412.6456,1.09983
0.87159,6438.0639,1.09983
0.89619,6512.0727,1.09983
0.92079,6719.3953,1.09983
0.9454,7132.0178,1.09983
0.97,7720.6882,1.09983
0.9946,8312.6755,1.09983
1.01921,8667.2888,1.09983
1.04381,8726.6416,1.09983
1.06841,8708.372,1.09983
1.09302,8779.0166,1.09983
1.11762,8879.6766,1.09983
1.14222,9031.1942,1.09983
1.16683,9262.0612,1.09983
1.19143,9901.7712,1.09983
1.21603,10879.871,1.09983
1.24064,12044.563,1.09983
1.26524,11509.598,1.09983
1.28984,11142.742,1.09983
1.31445,11378.123,1.09983
1.33905,12053.09,1.09983
1.36365,11568.706,1.09983
1.38825,8632.8558,1.09983
1.41286,6899.3393,1.09983
1.43746,6034.613,1.09983
1.46206,5488.7887,1.09983
1.48667,5076.5221,1.09983
1.51127,4771.2587,1.09983
1.53587,4501.5533,1.09983
1.56048,4276.4988,1.09983
1.58508,4071.8557,1.09983
1.60968,3900.1274,1.09983
1.63429,3728.7875,1.09983
1.65889,3570.1653,1.09983
1.68349,3435.8876,1.09983
1.7081,3319.2654,1.09983
1.7327,3205.2422,1.09983
1.7573,3089.5174,1.09983
1.78191,3001.1539,1.09983
1.80651,2905.4912,1.09983
1.83111,2819.8186,1.09983
1.85572,2732.5074,1.09983
1.88032,2651.7779,1.09983
1.90492,2582.8787,1.09983
1.92952,2507.6338,1.09983
1.95413,2445.9517,1.09983
1.97873,2376.8529,1.09983
2.00333,2320.719,1.09983
2.02794,2261.6563,1.09983
2.05254,2204.4002,1.09983
2.07714,2145.2295,1.09983
2.10175,2099.6304,1.09983
2.12635,2051.6948,1.09983
2.15095,2003.3341,1.09983
2.17556,1958.3501,1.09983
2.20016,1915.7863,1.09983
2.22476,1876.051,1.09983
2.24937,1837.4749,1.09983
0.60027,5126.1062,1.1998
0.6159,5760.6806,1.1998
0.63153,6266.1126,1.1998
0.64717,6548.8058,1.1998
0.6628,6403.1268,1.1998
0.67844,6028.0018,1.1998
0.69407,5735.6262,1.1998
0.70971,5497.6503,1.1998
0.72534,5493.6019,1.1998
0.74097,5502.1381,1.1998
0.75661,5551.2044,1.1998
0.77224,5616.9398,1.1998
0.78788,5697.7008,1.1998
0.80351,5774.606,1.1998
0.81914,5844.8864,1.1998
0.83478,5899.4335,1.1998
0.85041,5948.7132,1.1998
0.86605,5974.8306,1.1998
0.88168,6009.6211,1.1998
0.89732,6077.5846,1.1998
0.91295,6201.594,1.1998
0.92858,6389.1426,1.1998
0.94422,6652.3304,1.1998
0.95985,6996.0372,1.1998
0.97549,7393.4273,1.1998
0.99112,7772.5161,1.1998
1.00675,8051.4869,1.1998
1.02239,8195.7497,1.1998
1.03802,8231.1216,1.1998
1.05366,8210.44,1.1998
1.06929,8234.5516,1.1998
1.08493,8303.4289,1.1998
1.10056,8399.3447,1.1998
1.11619,8488.2488,1.1998
1.13183,8580.6252,1.1998
1.14746,8711.5473,1.1998
1.1631,8829.1772,1.1998
1.17873,8947.7385,1.1998
1.19436,9141.1145,1.1998
1.21,9420.0758,1.1998
1.22563,9867.7413,1.1998
1.24127,10868.696,1.1998
1.2569,11715.037,1.1998
1.27254,12583.399,1.1998
1.28817,12954.503,1.1998
1.3038,12103.253,1.1998
1.31944,11993.769,1.1998
1.33507,12167.245,1.1998
1.35071,12664.281,1.1998
1.36634,13365.786,1.1998
1.38197,12534.097,1.1998
1.39761,9948.9379,1.1998
1.41324,8215.0554,1.1998
1.42888,7211.6102,1.1998
1.44451,6573.2368,1.1998
1.46014,6122.6401,1.1998
1.47578,5769.0932,1.1998
1.49141,5489.2047,1.1998
1.50705,5240.8182,1.1998
1.52268,5039.2308,1.1998
1.53832,4862.4443,1.1998
1.55395,4676.7941,1.1998
1.56958,4536.6738,1.1998
1.58522,4391.1683,1.1998
1.60085,4252.4366,1.1998
1.61649,4146.8233,1.1998
0.58441,4610.9973,1.29983
0.59958,4704.6896,1.29983
0.61474,4801.2299,1.29983
0.6299,4834.2386,1.29983
0.64506,4866.4084,1.29983
0.66022,4892.379,1.29983
0.67538,4913.2226,1.29983
0.69055,4932.418,1.29983
0.70571,4946.1583,1.29983
0.72087,4962.8602,1.29983
0.73603,5003.2742,1.29983
0.75119,5050.6214,1.29983
0.76635,5130.9754,1.29983
0.78152,5215.1331,1.29983
0.79668,5303.1684,1.29983
0.81184,5396.394,1.29983
0.827,5470.6537,1.29983
0.84216,5540.368,1.29983
0.85732,5603.2948,1.29983
0.87249,5654.8951,1.29983
0.88765,5715.9703,1.29983
0.90281,5815.0261,1.29983
0.91797,5960.3453,1.29983
0.93313,6147.9348,1.29983
0.94829,6404.2563,1.29983
0.96346,6711.2542,1.29983
0.97862,7049.5624,1.29983
0.99378,7349.3284,1.29983
1.00894,7591.5841,1.29983
1.0241,7730.5208,1.29983
1.03927,7795.3429,1.29983
1.05443,7806.1549,1.29983
1.06959,7850.9259,1.29983
1.08475,7951.9784,1.29983
1.09991,8048.018,1.29983
1.11507,8154.3254,1.29983
1.13024,8278.9675,1.29983
1.1454,8396.7853,1.29983
1.16056,8509.2978,1.29983
1.17572,8681.5743,1.29983
1.19088,8817.6341,1.29983
1.20604,9007.8626,1.29983
1.22121,9243.8947,1.29983
1.23637,9522.0031,1.29983
1.25153,9874.4067,1.29983
1.26669,10591.354,1.29983
1.28185,12023.16,1.29983
1.29701,13005.027,1.29983
1.31218,14669.288,1.29983
1.32734,13627.382,1.29983
1.3425,13264.979,1.29983
1.35766,13436.636,1.29983
1.37282,14158.574,1.29983
1.38798,14540.818,1.29983
1.40315,12368.132,1.29983
1.41831,9746.5761,1.29983
1.43347,8227.5739,1.29983
1.44863,7327.9845,1.29983
1.46379,6730.0362,1.29983
1.47895,6307.5083,1.29983
1.49412,5962.1046,1.29983
1.50928,5668.0708,1.29983
1.52444,5445.0975,1.29983
1.5396,5240.2471,1.29983
1.55476,5049.0096,1.29983
1.56992,4897.9268,1.29983
0.56863,3997.0543,1.39998
0.58329,4060.9894,1.39998
0.59795,4132.8172,1.39998
0.6126,4203.643,1.39998
0.62726,4261.8342,1.39998
0.64192,4322.4037,1.39998
0.65657,4382.0101,1.39998
0.67123,4421.8171,1.39998
0.68588,4461.9329,1.39998
0.70054,4496.3431,1.39998
0.7152,4530.6385,1.39998
0.72985,4574.2441,1.39998
0.74451,4636.4325,1.39998
0.75917,4706.866,1.39998
0.77382,4799.378,1.39998
0.78848,4896.0908,1.39998
0.80314,4992.8654,1.39998
0.81779,5090.3596,1.39998
0.83245,5175.0808,1.39998
0.84711,5259.4123,1.39998
0.86176,5331.3596,1.39998
0.87642,5410.8273,1.39998
